%frequency	 %AdV2015	 %AdV2017	 %AdV2019
   1.0000000e+01   1.1111897e-21   1.0991545e-21   1.1060283e-21
   1.0023060e+01   1.1008736e-21   1.0888405e-21   1.0957144e-21
   1.0046173e+01   1.0906585e-21   1.0786276e-21   1.0855016e-21
   1.0069340e+01   1.0805433e-21   1.0685147e-21   1.0753886e-21
   1.0092560e+01   1.0705268e-21   1.0585005e-21   1.0653744e-21
   1.0115833e+01   1.0606080e-21   1.0485841e-21   1.0554580e-21
   1.0139161e+01   1.0507857e-21   1.0387644e-21   1.0456382e-21
   1.0162542e+01   1.0410590e-21   1.0290402e-21   1.0359139e-21
   1.0185976e+01   1.0314268e-21   1.0194107e-21   1.0262842e-21
   1.0209465e+01   1.0218881e-21   1.0098747e-21   1.0167480e-21
   1.0233008e+01   1.0124418e-21   1.0004312e-21   1.0073043e-21
   1.0256606e+01   1.0030870e-21   9.9107924e-22   9.9795210e-22
   1.0280258e+01   9.9382271e-22   9.8181786e-22   9.8869045e-22
   1.0303964e+01   9.8464795e-22   9.7264609e-22   9.7951837e-22
   1.0327725e+01   9.7556176e-22   9.6356296e-22   9.7043491e-22
   1.0351541e+01   9.6656322e-22   9.5456755e-22   9.6143913e-22
   1.0375412e+01   9.5765139e-22   9.4565892e-22   9.5253011e-22
   1.0399337e+01   9.4882538e-22   9.3683616e-22   9.4370693e-22
   1.0423318e+01   9.4008427e-22   9.2809838e-22   9.3496870e-22
   1.0447355e+01   9.3142718e-22   9.1944468e-22   9.2631452e-22
   1.0471446e+01   9.2285325e-22   9.1087420e-22   9.1774353e-22
   1.0495594e+01   9.1436159e-22   9.0238606e-22   9.0925486e-22
   1.0519796e+01   9.0595137e-22   8.9397942e-22   9.0084766e-22
   1.0544055e+01   8.9762174e-22   8.8565343e-22   8.9252109e-22
   1.0568370e+01   8.8937187e-22   8.7740727e-22   8.8427431e-22
   1.0592741e+01   8.8120094e-22   8.6924011e-22   8.7610651e-22
   1.0617168e+01   8.7310814e-22   8.6115115e-22   8.6801688e-22
   1.0641651e+01   8.6509269e-22   8.5313959e-22   8.6000462e-22
   1.0666191e+01   8.5715377e-22   8.4520463e-22   8.5206894e-22
   1.0690787e+01   8.4929063e-22   8.3734550e-22   8.4420907e-22
   1.0715440e+01   8.4150248e-22   8.2956143e-22   8.3642423e-22
   1.0740150e+01   8.3378858e-22   8.2185166e-22   8.2871367e-22
   1.0764917e+01   8.2614816e-22   8.1421545e-22   8.2107663e-22
   1.0789741e+01   8.1858050e-22   8.0665204e-22   8.1351237e-22
   1.0814622e+01   8.1108485e-22   7.9916071e-22   8.0602017e-22
   1.0839560e+01   8.0366049e-22   7.9174073e-22   7.9859930e-22
   1.0864557e+01   7.9630672e-22   7.8439139e-22   7.9124904e-22
   1.0889610e+01   7.8902282e-22   7.7711199e-22   7.8396869e-22
   1.0914722e+01   7.8180809e-22   7.6990182e-22   7.7675755e-22
   1.0939891e+01   7.7466185e-22   7.6276020e-22   7.6961493e-22
   1.0965119e+01   7.6758342e-22   7.5568644e-22   7.6254016e-22
   1.0990404e+01   7.6057212e-22   7.4867988e-22   7.5553255e-22
   1.1015748e+01   7.5362729e-22   7.4173984e-22   7.4859144e-22
   1.1041151e+01   7.4674827e-22   7.3486567e-22   7.4171618e-22
   1.1066612e+01   7.3993441e-22   7.2805671e-22   7.3490611e-22
   1.1092131e+01   7.3318506e-22   7.2131234e-22   7.2816059e-22
   1.1117710e+01   7.2649960e-22   7.1463190e-22   7.2147898e-22
   1.1143347e+01   7.1987739e-22   7.0801477e-22   7.1486067e-22
   1.1169044e+01   7.1331781e-22   7.0146034e-22   7.0830502e-22
   1.1194800e+01   7.0682025e-22   6.9496798e-22   7.0181143e-22
   1.1220615e+01   7.0038410e-22   6.8853709e-22   6.9537928e-22
   1.1246490e+01   6.9400876e-22   6.8216707e-22   6.8900797e-22
   1.1272425e+01   6.8769364e-22   6.7585733e-22   6.8269692e-22
   1.1298419e+01   6.8143816e-22   6.6960728e-22   6.7644554e-22
   1.1324473e+01   6.7524172e-22   6.6341633e-22   6.7025323e-22
   1.1350587e+01   6.6910376e-22   6.5728392e-22   6.6411945e-22
   1.1376762e+01   6.6302371e-22   6.5120948e-22   6.5804360e-22
   1.1402997e+01   6.5700101e-22   6.4519245e-22   6.5202514e-22
   1.1429292e+01   6.5103510e-22   6.3923227e-22   6.4606350e-22
   1.1455648e+01   6.4512543e-22   6.3332839e-22   6.4015815e-22
   1.1482065e+01   6.3927147e-22   6.2748027e-22   6.3430853e-22
   1.1508543e+01   6.3347267e-22   6.2168738e-22   6.2851411e-22
   1.1535082e+01   6.2772851e-22   6.1594917e-22   6.2277435e-22
   1.1561682e+01   6.2203845e-22   6.1026514e-22   6.1708874e-22
   1.1588343e+01   6.1640198e-22   6.0463475e-22   6.1145676e-22
   1.1615066e+01   6.1081859e-22   5.9905750e-22   6.0587788e-22
   1.1641850e+01   6.0528776e-22   5.9353287e-22   6.0035161e-22
   1.1668696e+01   5.9980900e-22   5.8806037e-22   5.9487743e-22
   1.1695605e+01   5.9438180e-22   5.8263949e-22   5.8945485e-22
   1.1722575e+01   5.8900567e-22   5.7726975e-22   5.8408339e-22
   1.1749607e+01   5.8368014e-22   5.7195065e-22   5.7876254e-22
   1.1776702e+01   5.7840471e-22   5.6668173e-22   5.7349184e-22
   1.1803859e+01   5.7317891e-22   5.6146249e-22   5.6827080e-22
   1.1831079e+01   5.6800227e-22   5.5629247e-22   5.6309896e-22
   1.1858361e+01   5.6287432e-22   5.5117121e-22   5.5797585e-22
   1.1885707e+01   5.5779461e-22   5.4609824e-22   5.5290100e-22
   1.1913115e+01   5.5276267e-22   5.4107311e-22   5.4787397e-22
   1.1940587e+01   5.4777805e-22   5.3609537e-22   5.4289430e-22
   1.1968122e+01   5.4284032e-22   5.3116457e-22   5.3796154e-22
   1.1995721e+01   5.3794902e-22   5.2628027e-22   5.3307526e-22
   1.2023383e+01   5.3310373e-22   5.2144203e-22   5.2823501e-22
   1.2051109e+01   5.2830401e-22   5.1664943e-22   5.2344037e-22
   1.2078899e+01   5.2354942e-22   5.1190203e-22   5.1869091e-22
   1.2106753e+01   5.1883956e-22   5.0719942e-22   5.1398621e-22
   1.2134671e+01   5.1417400e-22   5.0254118e-22   5.0932585e-22
   1.2162654e+01   5.0955233e-22   4.9792689e-22   5.0470941e-22
   1.2190701e+01   5.0497415e-22   4.9335615e-22   5.0013650e-22
   1.2218813e+01   5.0043903e-22   4.8882855e-22   4.9560669e-22
   1.2246989e+01   4.9594660e-22   4.8434370e-22   4.9111960e-22
   1.2275231e+01   4.9149644e-22   4.7990119e-22   4.8667483e-22
   1.2303538e+01   4.8708818e-22   4.7550064e-22   4.8227199e-22
   1.2331910e+01   4.8272142e-22   4.7114166e-22   4.7791068e-22
   1.2360347e+01   4.7839578e-22   4.6682388e-22   4.7359054e-22
   1.2388850e+01   4.7411088e-22   4.6254690e-22   4.6931118e-22
   1.2417419e+01   4.6986636e-22   4.5831037e-22   4.6507223e-22
   1.2446054e+01   4.6566183e-22   4.5411390e-22   4.6087332e-22
   1.2474755e+01   4.6149694e-22   4.4995714e-22   4.5671408e-22
   1.2503521e+01   4.5737132e-22   4.4583973e-22   4.5259416e-22
   1.2532355e+01   4.5328462e-22   4.4176131e-22   4.4851319e-22
   1.2561254e+01   4.4923648e-22   4.3772152e-22   4.4447082e-22
   1.2590221e+01   4.4522656e-22   4.3372002e-22   4.4046671e-22
   1.2619254e+01   4.4125451e-22   4.2975647e-22   4.3650051e-22
   1.2648354e+01   4.3731998e-22   4.2583052e-22   4.3257188e-22
   1.2677521e+01   4.3342265e-22   4.2194185e-22   4.2868048e-22
   1.2706756e+01   4.2956218e-22   4.1809011e-22   4.2482599e-22
   1.2736058e+01   4.2573824e-22   4.1427498e-22   4.2100807e-22
   1.2765427e+01   4.2195051e-22   4.1049614e-22   4.1722640e-22
   1.2794864e+01   4.1819867e-22   4.0675327e-22   4.1348066e-22
   1.2824369e+01   4.1448240e-22   4.0304605e-22   4.0977054e-22
   1.2853942e+01   4.1080138e-22   3.9937417e-22   4.0609571e-22
   1.2883584e+01   4.0715532e-22   3.9573732e-22   4.0245589e-22
   1.2913293e+01   4.0354390e-22   3.9213521e-22   3.9885075e-22
   1.2943071e+01   3.9996683e-22   3.8856753e-22   3.9528000e-22
   1.2972918e+01   3.9642381e-22   3.8503399e-22   3.9174335e-22
   1.3002834e+01   3.9291455e-22   3.8153430e-22   3.8824050e-22
   1.3032818e+01   3.8943876e-22   3.7806817e-22   3.8477117e-22
   1.3062872e+01   3.8599615e-22   3.7463532e-22   3.8133507e-22
   1.3092995e+01   3.8258645e-22   3.7123547e-22   3.7793193e-22
   1.3123188e+01   3.7920938e-22   3.6786834e-22   3.7456147e-22
   1.3153450e+01   3.7586467e-22   3.6453367e-22   3.7122341e-22
   1.3183782e+01   3.7255206e-22   3.6123120e-22   3.6791750e-22
   1.3214184e+01   3.6927127e-22   3.5796066e-22   3.6464347e-22
   1.3244656e+01   3.6602206e-22   3.5472179e-22   3.6140106e-22
   1.3275198e+01   3.6280417e-22   3.5151434e-22   3.5819002e-22
   1.3305811e+01   3.5961734e-22   3.4833808e-22   3.5501010e-22
   1.3336494e+01   3.5646133e-22   3.4519274e-22   3.5186105e-22
   1.3367248e+01   3.5333591e-22   3.4207810e-22   3.4874265e-22
   1.3398073e+01   3.5024084e-22   3.3899392e-22   3.4565464e-22
   1.3428969e+01   3.4717588e-22   3.3593998e-22   3.4259681e-22
   1.3459937e+01   3.4414081e-22   3.3291605e-22   3.3956893e-22
   1.3490975e+01   3.4113541e-22   3.2992191e-22   3.3657077e-22
   1.3522086e+01   3.3815947e-22   3.2695734e-22   3.3360212e-22
   1.3553268e+01   3.3521276e-22   3.2402215e-22   3.3066278e-22
   1.3584522e+01   3.3229509e-22   3.2111613e-22   3.2775254e-22
   1.3615848e+01   3.2940626e-22   3.1823909e-22   3.2487119e-22
   1.3647246e+01   3.2654607e-22   3.1539082e-22   3.2201855e-22
   1.3678716e+01   3.2371433e-22   3.1257116e-22   3.1919443e-22
   1.3710260e+01   3.2091087e-22   3.0977992e-22   3.1639865e-22
   1.3741876e+01   3.1813550e-22   3.0701692e-22   3.1363104e-22
   1.3773565e+01   3.1538806e-22   3.0428201e-22   3.1089142e-22
   1.3805326e+01   3.1266838e-22   3.0157503e-22   3.0817964e-22
   1.3837162e+01   3.0997630e-22   2.9889582e-22   3.0549554e-22
   1.3869070e+01   3.0731169e-22   2.9624424e-22   3.0283897e-22
   1.3901052e+01   3.0467439e-22   2.9362017e-22   3.0020980e-22
   1.3933108e+01   3.0206428e-22   2.9102346e-22   2.9760790e-22
   1.3965238e+01   2.9948123e-22   2.8845401e-22   2.9503314e-22
   1.3997442e+01   2.9692513e-22   2.8591171e-22   2.9248542e-22
   1.4029720e+01   2.9439586e-22   2.8339645e-22   2.8996462e-22
   1.4062073e+01   2.9189334e-22   2.8090815e-22   2.8747066e-22
   1.4094500e+01   2.8941748e-22   2.7844674e-22   2.8500345e-22
   1.4127002e+01   2.8696820e-22   2.7601214e-22   2.8256293e-22
   1.4159579e+01   2.8454544e-22   2.7360430e-22   2.8014902e-22
   1.4192231e+01   2.8214916e-22   2.7122319e-22   2.7776170e-22
   1.4224959e+01   2.7977930e-22   2.6886878e-22   2.7540091e-22
   1.4257762e+01   2.7743585e-22   2.6654104e-22   2.7306664e-22
   1.4290640e+01   2.7511881e-22   2.6424000e-22   2.7075890e-22
   1.4323594e+01   2.7282817e-22   2.6196566e-22   2.6847769e-22
   1.4356625e+01   2.7056396e-22   2.5971808e-22   2.6622303e-22
   1.4389731e+01   2.6832624e-22   2.5749730e-22   2.6399500e-22
   1.4422914e+01   2.6611506e-22   2.5530341e-22   2.6179364e-22
   1.4456173e+01   2.6393050e-22   2.5313652e-22   2.5961905e-22
   1.4489510e+01   2.6177268e-22   2.5099674e-22   2.5747136e-22
   1.4522922e+01   2.5964173e-22   2.4888423e-22   2.5535069e-22
   1.4556412e+01   2.5753781e-22   2.4679917e-22   2.5325723e-22
   1.4589980e+01   2.5546112e-22   2.4474179e-22   2.5119116e-22
   1.4623624e+01   2.5341187e-22   2.4271233e-22   2.4915273e-22
   1.4657346e+01   2.5139033e-22   2.4071107e-22   2.4714220e-22
   1.4691146e+01   2.4939679e-22   2.3873833e-22   2.4515988e-22
   1.4725024e+01   2.4743160e-22   2.3679450e-22   2.4320612e-22
   1.4758980e+01   2.4549513e-22   2.3487999e-22   2.4128131e-22
   1.4793015e+01   2.4358783e-22   2.3299527e-22   2.3938592e-22
   1.4827127e+01   2.4171019e-22   2.3114088e-22   2.3752044e-22
   1.4861319e+01   2.3986277e-22   2.2931741e-22   2.3568545e-22
   1.4895589e+01   2.3804617e-22   2.2752553e-22   2.3388158e-22
   1.4929939e+01   2.3626111e-22   2.2576599e-22   2.3210956e-22
   1.4964367e+01   2.3450837e-22   2.2403962e-22   2.3037017e-22
   1.4998875e+01   2.3278882e-22   2.2234737e-22   2.2866433e-22
   1.5033463e+01   2.3110343e-22   2.2069027e-22   2.2699304e-22
   1.5068130e+01   2.2945331e-22   2.1906948e-22   2.2535740e-22
   1.5102877e+01   2.2783967e-22   2.1748632e-22   2.2375869e-22
   1.5137704e+01   2.2626389e-22   2.1594223e-22   2.2219828e-22
   1.5172612e+01   2.2472750e-22   2.1443884e-22   2.2067776e-22
   1.5207600e+01   2.2323221e-22   2.1297796e-22   2.1919888e-22
   1.5242669e+01   2.2177996e-22   2.1156164e-22   2.1776360e-22
   1.5277819e+01   2.2037289e-22   2.1019216e-22   2.1637413e-22
   1.5313050e+01   2.1901344e-22   2.0887208e-22   2.1503295e-22
   1.5348362e+01   2.1770434e-22   2.0760428e-22   2.1374284e-22
   1.5383755e+01   2.1644868e-22   2.0639201e-22   2.1250695e-22
   1.5419230e+01   2.1524993e-22   2.0523894e-22   2.1132883e-22
   1.5454787e+01   2.1411203e-22   2.0414921e-22   2.1021249e-22
   1.5490426e+01   2.1303946e-22   2.0312751e-22   2.0916249e-22
   1.5526147e+01   2.1203729e-22   2.0217917e-22   2.0818399e-22
   1.5561950e+01   2.1111133e-22   2.0131026e-22   2.0728289e-22
   1.5597836e+01   2.1026817e-22   2.0052771e-22   2.0646594e-22
   1.5633805e+01   2.0951543e-22   1.9983945e-22   2.0574084e-22
   1.5669857e+01   2.0886184e-22   1.9925460e-22   2.0511647e-22
   1.5705991e+01   2.0831745e-22   1.9878366e-22   2.0460306e-22
   1.5742210e+01   2.0789395e-22   1.9843878e-22   2.0421247e-22
   1.5778511e+01   2.0760490e-22   1.9823405e-22   2.0395845e-22
   1.5814897e+01   2.0746613e-22   1.9818590e-22   2.0385706e-22
   1.5851366e+01   2.0749622e-22   1.9831358e-22   2.0392712e-22
   1.5887919e+01   2.0771704e-22   1.9863971e-22   2.0419080e-22
   1.5924557e+01   2.0815451e-22   1.9919103e-22   2.0467431e-22
   1.5961279e+01   2.0883947e-22   1.9999933e-22   2.0540886e-22
   1.5998086e+01   2.0980887e-22   2.0110259e-22   2.0643178e-22
   1.6034978e+01   2.1110725e-22   2.0254650e-22   2.0778805e-22
   1.6071954e+01   2.1278866e-22   2.0438641e-22   2.0953222e-22
   1.6109016e+01   2.1491923e-22   2.0668984e-22   2.1173093e-22
   1.6146164e+01   2.1758049e-22   2.0953987e-22   2.1446632e-22
   1.6183397e+01   2.2087389e-22   2.1303967e-22   2.1784050e-22
   1.6220716e+01   2.2492702e-22   2.1731862e-22   2.2198175e-22
   1.6258121e+01   2.2990210e-22   2.2254090e-22   2.2705304e-22
   1.6295613e+01   2.3600813e-22   2.2891754e-22   2.3326417e-22
   1.6333190e+01   2.4351829e-22   2.3672379e-22   2.4088914e-22
   1.6370855e+01   2.5279581e-22   2.4632495e-22   2.5029199e-22
   1.6408606e+01   2.6433322e-22   2.5821552e-22   2.6196604e-22
   1.6446445e+01   2.7881416e-22   2.7308087e-22   2.7659563e-22
   1.6484370e+01   2.9721427e-22   2.9189802e-22   2.9515699e-22
   1.6522383e+01   3.2097385e-22   3.1610810e-22   3.1909076e-22
   1.6560484e+01   3.5230967e-22   3.4792801e-22   3.5061381e-22
   1.6598673e+01   3.9481824e-22   3.9095347e-22   3.9332238e-22
   1.6636949e+01   4.5474684e-22   4.5142986e-22   4.5346301e-22
   1.6675314e+01   5.4399147e-22   5.4125013e-22   5.4293053e-22
   1.6713768e+01   6.8836157e-22   6.8621942e-22   6.8753269e-22
   1.6752310e+01   9.5637543e-22   9.5485055e-22   9.5578559e-22
   1.6790941e+01   1.6100963e-21   1.6092003e-21   1.6097498e-21
   1.6829661e+01   5.4260963e-21   5.4258333e-21   5.4259947e-21
   1.6868470e+01   3.8272247e-21   3.8268555e-21   3.8270821e-21
   1.6907369e+01   1.4136658e-21   1.4126763e-21   1.4132842e-21
   1.6946357e+01   8.6935232e-22   8.6775889e-22   8.6873847e-22
   1.6985436e+01   6.3089639e-22   6.2872151e-22   6.3005964e-22
   1.7024604e+01   4.9810647e-22   4.9537732e-22   4.9705798e-22
   1.7063863e+01   4.1412313e-22   4.1087039e-22   4.1287543e-22
   1.7103213e+01   3.5661597e-22   3.5287259e-22   3.5518242e-22
   1.7142653e+01   3.1502864e-22   3.1082872e-22   3.1342301e-22
   1.7182184e+01   2.8372425e-22   2.7910208e-22   2.8196029e-22
   1.7221806e+01   2.5942073e-22   2.5440998e-22   2.5751188e-22
   1.7261520e+01   2.4007944e-22   2.3471258e-22   2.3803860e-22
   1.7301325e+01   2.2436903e-22   2.1867692e-22   2.2220838e-22
   1.7341222e+01   2.1138469e-22   2.0539631e-22   2.0911564e-22
   1.7381211e+01   2.0049128e-22   1.9423355e-22   1.9812435e-22
   1.7421292e+01   1.9123076e-22   1.8472854e-22   1.8877563e-22
   1.7461466e+01   1.8326530e-22   1.7654139e-22   1.8073083e-22
   1.7501732e+01   1.7634091e-22   1.6941611e-22   1.7373513e-22
   1.7542091e+01   1.7026338e-22   1.6315663e-22   1.6759357e-22
   1.7582543e+01   1.6488207e-22   1.5761055e-22   1.6215481e-22
   1.7623089e+01   1.6007862e-22   1.5265789e-22   1.5729985e-22
   1.7663728e+01   1.5575895e-22   1.4820310e-22   1.5293404e-22
   1.7704460e+01   1.5184754e-22   1.4416929e-22   1.4898131e-22
   1.7745287e+01   1.4828317e-22   1.4049405e-22   1.4537997e-22
   1.7786208e+01   1.4501582e-22   1.3712623e-22   1.4207958e-22
   1.7827223e+01   1.4200427e-22   1.3402363e-22   1.3903854e-22
   1.7868333e+01   1.3921435e-22   1.3115119e-22   1.3622232e-22
   1.7909537e+01   1.3661751e-22   1.2847955e-22   1.3360207e-22
   1.7950837e+01   1.3418977e-22   1.2598402e-22   1.3115353e-22
   1.7992231e+01   1.3191087e-22   1.2364369e-22   1.2885619e-22
   1.8033722e+01   1.2976358e-22   1.2144076e-22   1.2669263e-22
   1.8075308e+01   1.2773322e-22   1.1936002e-22   1.2464793e-22
   1.8116989e+01   1.2580716e-22   1.1738839e-22   1.2270932e-22
   1.8158767e+01   1.2397454e-22   1.1551459e-22   1.2086577e-22
   1.8200642e+01   1.2222595e-22   1.1372883e-22   1.1910772e-22
   1.8242612e+01   1.2055323e-22   1.1202261e-22   1.1742690e-22
   1.8284680e+01   1.1894924e-22   1.1038849e-22   1.1581604e-22
   1.8326845e+01   1.1740775e-22   1.0881996e-22   1.1426881e-22
   1.8369106e+01   1.1592327e-22   1.0731129e-22   1.1277963e-22
   1.8411466e+01   1.1449098e-22   1.0585742e-22   1.1134359e-22
   1.8453923e+01   1.1310659e-22   1.0445388e-22   1.0995634e-22
   1.8496478e+01   1.1176632e-22   1.0309669e-22   1.0861402e-22
   1.8539131e+01   1.1046680e-22   1.0178232e-22   1.0731320e-22
   1.8581882e+01   1.0920503e-22   1.0050761e-22   1.0605081e-22
   1.8624732e+01   1.0797830e-22   9.9269728e-23   1.0482412e-22
   1.8667681e+01   1.0678422e-22   9.8066137e-23   1.0363067e-22
   1.8710728e+01   1.0562061e-22   9.6894553e-23   1.0246824e-22
   1.8753876e+01   1.0448551e-22   9.5752917e-23   1.0133483e-22
   1.8797122e+01   1.0337716e-22   9.4639366e-23   1.0022866e-22
   1.8840468e+01   1.0229395e-22   9.3552211e-23   9.9148076e-23
   1.8883915e+01   1.0123445e-22   9.2489920e-23   9.8091607e-23
   1.8927461e+01   1.0019732e-22   9.1451098e-23   9.7057901e-23
   1.8971108e+01   9.9181358e-23   9.0434472e-23   9.6045730e-23
   1.9014856e+01   9.8185469e-23   8.9438881e-23   9.5053971e-23
   1.9058704e+01   9.7208645e-23   8.8463259e-23   9.4081594e-23
   1.9102653e+01   9.6249961e-23   8.7506629e-23   9.3127658e-23
   1.9146704e+01   9.5308570e-23   8.6568095e-23   9.2191295e-23
   1.9190857e+01   9.4383689e-23   8.5646829e-23   9.1271708e-23
   1.9235111e+01   9.3474600e-23   8.4742070e-23   9.0368160e-23
   1.9279467e+01   9.2580635e-23   8.3853112e-23   8.9479972e-23
   1.9323926e+01   9.1701180e-23   8.2979303e-23   8.8606514e-23
   1.9368487e+01   9.0835663e-23   8.2120040e-23   8.7747203e-23
   1.9413151e+01   8.9983553e-23   8.1274759e-23   8.6901496e-23
   1.9457918e+01   8.9144357e-23   8.0442938e-23   8.6068889e-23
   1.9502788e+01   8.8317616e-23   7.9624091e-23   8.5248912e-23
   1.9547762e+01   8.7502900e-23   7.8817764e-23   8.4441128e-23
   1.9592839e+01   8.6699808e-23   7.8023532e-23   8.3645126e-23
   1.9638020e+01   8.5907965e-23   7.7240997e-23   8.2860522e-23
   1.9683305e+01   8.5127019e-23   7.6469788e-23   8.2086958e-23
   1.9728695e+01   8.4356639e-23   7.5709554e-23   8.1324095e-23
   1.9774190e+01   8.3596515e-23   7.4959968e-23   8.0571616e-23
   1.9819789e+01   8.2846355e-23   7.4220719e-23   7.9829222e-23
   1.9865494e+01   8.2105883e-23   7.3491516e-23   7.9096631e-23
   1.9911304e+01   8.1374837e-23   7.2772085e-23   7.8373578e-23
   1.9957219e+01   8.0652973e-23   7.2062164e-23   7.7659811e-23
   2.0003241e+01   7.9940057e-23   7.1361509e-23   7.6955092e-23
   2.0049369e+01   7.9235868e-23   7.0669885e-23   7.6259196e-23
   2.0095603e+01   7.8540197e-23   6.9987072e-23   7.5571908e-23
   2.0141943e+01   7.7852845e-23   6.9312860e-23   7.4893026e-23
   2.0188391e+01   7.7173622e-23   6.8647048e-23   7.4222355e-23
   2.0234945e+01   7.6502348e-23   6.7989448e-23   7.3559712e-23
